#------------------------------------------------------------------------------
# RUNTIME LES STATISTICAL DATA
#
# Simulation run at:
# 08/31/2017  16:22:58
#
# Field description:
# N         =        256       256       256
# length    =   6.283185  6.283185  6.283185
# nu        =   0.002800
# CFL       =   0.100000
# sgs model =      NONE 
# model c   =   0.200000
#------------------------------------------------------------------------------
# step                     time                    <u^2>                   <v^2>                   <w^2>
1120813      0.114108790616E+03       0.197659002296E+01      0.188770668986E+01      0.214217862930E+01
1120873      0.114120095706E+03       0.196775238592E+01      0.188028813141E+01      0.212916456613E+01
1120976      0.114140055110E+03       0.195222582287E+01      0.186748895390E+01      0.210580502104E+01
1121076      0.114160065372E+03       0.193690139814E+01      0.185476756031E+01      0.208203376778E+01
1121174      0.114180078759E+03       0.192187331031E+01      0.184199020845E+01      0.205802588205E+01
1121269      0.114200018865E+03       0.190713761204E+01      0.182920301277E+01      0.203395003652E+01
1121362      0.114220171375E+03       0.189233469118E+01      0.181629540314E+01      0.200955390615E+01
1121454      0.114240124122E+03       0.187759296476E+01      0.180359518464E+01      0.198546308277E+01
1121550      0.114260095245E+03       0.186273454001E+01      0.179094472882E+01      0.196146155369E+01
1121649      0.114280164352E+03       0.184781200083E+01      0.177824467603E+01      0.193740319600E+01
1121750      0.114300038093E+03       0.183308114406E+01      0.176565523639E+01      0.191364253911E+01
1121854      0.114320104579E+03       0.181820828550E+01      0.175286289360E+01      0.188984841458E+01
1121959      0.114340166782E+03       0.180332040705E+01      0.173987206018E+01      0.186641978722E+01
1122060      0.114360079048E+03       0.178856258855E+01      0.172672417096E+01      0.184356446688E+01
1122157      0.114380162769E+03       0.177369901140E+01      0.171329469554E+01      0.182084104404E+01
1122250      0.114400201094E+03       0.175882820062E+01      0.169990818319E+01      0.179838566703E+01
1122342      0.114420007327E+03       0.174401362519E+01      0.168684244035E+01      0.177632434087E+01
1122437      0.114440002940E+03       0.172889116679E+01      0.167386115441E+01      0.175419199366E+01
1122535      0.114460175394E+03       0.171347469255E+01      0.166091255136E+01      0.173206195603E+01
1122630      0.114480176147E+03       0.169807381719E+01      0.164810364813E+01      0.171038891400E+01
1122721      0.114500179176E+03       0.168261341675E+01      0.163519701414E+01      0.168904870323E+01
1122810      0.114520145218E+03       0.166717472694E+01      0.162211588025E+01      0.166813580867E+01
1122897      0.114540017165E+03       0.165181130035E+01      0.160887408402E+01      0.164772777026E+01
1122984      0.114560191188E+03       0.163622496239E+01      0.159523224566E+01      0.162739747790E+01
1123068      0.114580201911E+03       0.162082543155E+01      0.158150937219E+01      0.160756964423E+01
1123150      0.114600122277E+03       0.160558473435E+01      0.156766484622E+01      0.158813493340E+01
1123230      0.114620106563E+03       0.159035720360E+01      0.155362626985E+01      0.156894063706E+01
1123311      0.114640107636E+03       0.157512239783E+01      0.153948033247E+01      0.155004320447E+01
1123399      0.114660120084E+03       0.155989358702E+01      0.152523236003E+01      0.153144527613E+01
1123492      0.114680201133E+03       0.154472179334E+01      0.151071962998E+01      0.151313101961E+01
1123585      0.114700001849E+03       0.152989633013E+01      0.149611469238E+01      0.149547867336E+01
1123678      0.114720008794E+03       0.151504416583E+01      0.148104961429E+01      0.147807988261E+01
1123768      0.114740035223E+03       0.150035081517E+01      0.146561804549E+01      0.146110761208E+01
1123859      0.114760210289E+03       0.148577443139E+01      0.144970136067E+01      0.144442613233E+01
1123950      0.114780166251E+03       0.147161841724E+01      0.143362853720E+01      0.142826633383E+01
1124038      0.114800053689E+03       0.145779170401E+01      0.141736839743E+01      0.141240210948E+01
1124122      0.114820090541E+03       0.144411400329E+01      0.140087337319E+01      0.139656873853E+01
1124205      0.114840158805E+03       0.143057978986E+01      0.138437682232E+01      0.138082213265E+01
1124286      0.114860049822E+03       0.141723813753E+01      0.136813838289E+01      0.136533578842E+01
1124367      0.114880027770E+03       0.140387497438E+01      0.135196634237E+01      0.134992517231E+01
1124449      0.114900043294E+03       0.139050193876E+01      0.133590155617E+01      0.133465973026E+01
1124528      0.114920193803E+03       0.137700378062E+01      0.131989220313E+01      0.131949794689E+01
1124607      0.114940145797E+03       0.136355538923E+01      0.130424785295E+01      0.130469779131E+01
1124687      0.114960135377E+03       0.134997221407E+01      0.128881583819E+01      0.129007739549E+01
1124766      0.114980049302E+03       0.133632542585E+01      0.127370668531E+01      0.127570309184E+01
1124844      0.115000193434E+03       0.132241690047E+01      0.125871986596E+01      0.126131491588E+01
1124919      0.115020007290E+03       0.130866421088E+01      0.124429542723E+01      0.124725666557E+01
1124995      0.115040257340E+03       0.129458674735E+01      0.122989455546E+01      0.123291693740E+01
1125069      0.115060256232E+03       0.128073167737E+01      0.121601686170E+01      0.121870567278E+01
1125141      0.115080051258E+03       0.126713276540E+01      0.120260720562E+01      0.120453013034E+01
1125218      0.115100096542E+03       0.125354856525E+01      0.118931227607E+01      0.119004102222E+01
1125299      0.115120237738E+03       0.124016931342E+01      0.117615072956E+01      0.117536133794E+01
1125378      0.115140013101E+03       0.122736387214E+01      0.116331501845E+01      0.116087331647E+01
1125456      0.115160206375E+03       0.121466508895E+01      0.115019281381E+01      0.114607148605E+01
1125530      0.115180228967E+03       0.120246506985E+01      0.113706571546E+01      0.113147572212E+01
1125600      0.115200088413E+03       0.119074653743E+01      0.112385071180E+01      0.111716545467E+01
1125669      0.115220206227E+03       0.117924266109E+01      0.111022569186E+01      0.110290383314E+01
1125738      0.115240267180E+03       0.116811038541E+01      0.109640071259E+01      0.108895311681E+01
1125806      0.115260222263E+03       0.115734195007E+01      0.108244659500E+01      0.107534775287E+01
1125873      0.115280135443E+03       0.114685550319E+01      0.106839410668E+01      0.106201681443E+01
1125940      0.115300135745E+03       0.113651591058E+01      0.105426053546E+01      0.104883633253E+01
1126007      0.115320183799E+03       0.112626000157E+01      0.104019017638E+01      0.103580377482E+01
1126074      0.115340156941E+03       0.111607597022E+01      0.102636107033E+01      0.102298209597E+01
1126141      0.115360199650E+03       0.110585443364E+01      0.101272312600E+01      0.101026895754E+01
1126207      0.115380029582E+03       0.109574983107E+01      0.999472127287E+00      0.997832804725E+00
1126273      0.115400137797E+03       0.108555606197E+01      0.986260446082E+00      0.985351117716E+00
1126341      0.115420027491E+03       0.107557519755E+01      0.973389050830E+00      0.973115871567E+00
1126412      0.115440002984E+03       0.106568616694E+01      0.960639337926E+00      0.960930354694E+00
1126484      0.115460137397E+03       0.105586388191E+01      0.947958036985E+00      0.948754994258E+00
1126555      0.115480151141E+03       0.104623061372E+01      0.935519131970E+00      0.936775336734E+00
1126625      0.115500236089E+03       0.103666274198E+01      0.923205690437E+00      0.924901610267E+00
1126692      0.115520222368E+03       0.102721236866E+01      0.911124350412E+00      0.913256920436E+00
1126757      0.115540032776E+03       0.101790482170E+01      0.899310495292E+00      0.901897226805E+00
1126824      0.115560092204E+03       0.100854804176E+01      0.887492739157E+00      0.890589079058E+00
1126891      0.115580106190E+03       0.999289431415E+00      0.875827752788E+00      0.879510109469E+00
1126957      0.115600003802E+03       0.990160558789E+00      0.864343134644E+00      0.868709761480E+00
1127023      0.115620309033E+03       0.980909355429E+00      0.852731348325E+00      0.857930383802E+00
1127086      0.115640200123E+03       0.971884918820E+00      0.841459588841E+00      0.847636566159E+00
1127148      0.115660327810E+03       0.962758987868E+00      0.830165672108E+00      0.837511254162E+00
1127208      0.115680187231E+03       0.953730466696E+00      0.819157722359E+00      0.827810153646E+00
1127269      0.115700307296E+03       0.944539433961E+00      0.808184942645E+00      0.818249103015E+00
1127329      0.115720054101E+03       0.935469954819E+00      0.797642156306E+00      0.809079793861E+00
1127390      0.115740132235E+03       0.926200276731E+00      0.787205323077E+00      0.799917488985E+00
1127451      0.115760269372E+03       0.916860374115E+00      0.777070851019E+00      0.790838185958E+00
1127511      0.115780203714E+03       0.907581467409E+00      0.767398148244E+00      0.781919380279E+00
1127570      0.115800005362E+03       0.898342645085E+00      0.758157578669E+00      0.773104977646E+00
1127629      0.115820076353E+03       0.888964943429E+00      0.749164252654E+00      0.764208072190E+00
1127687      0.115840185667E+03       0.879561095093E+00      0.740516356445E+00      0.755336601057E+00
1127743      0.115860071575E+03       0.870258644424E+00      0.732294538784E+00      0.746619717873E+00
1127799      0.115880184407E+03       0.860859044183E+00      0.724273851544E+00      0.737877349027E+00
1127854      0.115900283710E+03       0.851495969704E+00      0.716514584360E+00      0.729225757785E+00
1127907      0.115920244957E+03       0.842253798360E+00      0.709031481082E+00      0.720715197799E+00
1127960      0.115940254947E+03       0.833074366439E+00      0.701733189749E+00      0.712252698697E+00
1128013      0.115960178059E+03       0.824045560483E+00      0.694654018295E+00      0.703881338611E+00
1128066      0.115980180306E+03       0.815111065207E+00      0.687719722661E+00      0.695525105070E+00
1128119      0.116000201174E+03       0.806309123031E+00      0.680932745702E+00      0.687217172296E+00
1128172      0.116020093787E+03       0.797704753016E+00      0.674317492340E+00      0.679039068357E+00
1128226      0.116040331639E+03       0.789089110290E+00      0.667694658987E+00      0.670826362535E+00
1128279      0.116060163495E+03       0.780770319252E+00      0.661292251322E+00      0.662910374702E+00
1128333      0.116080334616E+03       0.772424245613E+00      0.654857727014E+00      0.655013402901E+00
1128386      0.116100200422E+03       0.764312676866E+00      0.648588980526E+00      0.647398473449E+00
1128439      0.116120299672E+03       0.756216373701E+00      0.642309544718E+00      0.639858573409E+00
1128491      0.116140330634E+03       0.748263150731E+00      0.636110397513E+00      0.632502071871E+00
1128542      0.116160393334E+03       0.740417909607E+00      0.629958004908E+00      0.625282010342E+00
1128592      0.116180224716E+03       0.732784162250E+00      0.623931263369E+00      0.618281880052E+00
1128643      0.116200379562E+03       0.725148569202E+00      0.617862738083E+00      0.611299715993E+00
1128693      0.116220138054E+03       0.717780917725E+00      0.611970062615E+00      0.604579594162E+00
1128744      0.116240354993E+03       0.710361461717E+00      0.605997676240E+00      0.597828993714E+00
1128794      0.116260339674E+03       0.703146112961E+00      0.600146634010E+00      0.591279695798E+00
1128843      0.116280167798E+03       0.696105514166E+00      0.594388145944E+00      0.584902323556E+00
1128892      0.116300299627E+03       0.689078420265E+00      0.588584866833E+00      0.578548198732E+00
1128940      0.116320369390E+03       0.682194677768E+00      0.582840099974E+00      0.572331946471E+00
1128988      0.116340206655E+03       0.675510097899E+00      0.577198996385E+00      0.566300525787E+00
1129037      0.116360315685E+03       0.668855411595E+00      0.571514822972E+00      0.560298500268E+00
1129085      0.116380057698E+03       0.662440395495E+00      0.565964554288E+00      0.554515121459E+00
1129133      0.116400004149E+03       0.656074433133E+00      0.560385513543E+00      0.548782705109E+00
1129181      0.116420059679E+03       0.649784355001E+00      0.554806334768E+00      0.543132729656E+00
1129229      0.116440191598E+03       0.643574431404E+00      0.549240348576E+00      0.537576195887E+00
1129278      0.116460377696E+03       0.637445679877E+00      0.543698979833E+00      0.532118523423E+00
1129327      0.116480216337E+03       0.631512544288E+00      0.538296497596E+00      0.526862291474E+00
1129377      0.116500353110E+03       0.625576862459E+00      0.532861821967E+00      0.521631373962E+00
1129426      0.116520173207E+03       0.619814742871E+00      0.527565822643E+00      0.516580617922E+00
1129475      0.116540187767E+03       0.614070652338E+00      0.522276703831E+00      0.511574926672E+00
1129523      0.116560089163E+03       0.608426068685E+00      0.517081057309E+00      0.506689326009E+00
1129571      0.116580371765E+03       0.602734498463E+00      0.511855124717E+00      0.501802999439E+00
1129617      0.116600260933E+03       0.597207170077E+00      0.506800744126E+00      0.497101497750E+00
1129662      0.116620186998E+03       0.591719651585E+00      0.501807363157E+00      0.492478825414E+00
1129706      0.116640068504E+03       0.586294337037E+00      0.496894670225E+00      0.487950323583E+00
1129751      0.116660236788E+03       0.580845098403E+00      0.491979889144E+00      0.483437011688E+00
1129796      0.116680087627E+03       0.575540799221E+00      0.487206324678E+00      0.479068600330E+00
1129842      0.116700407748E+03       0.570178969730E+00      0.482380078555E+00      0.474668028439E+00
1129886      0.116720161158E+03       0.565039185986E+00      0.477740657668E+00      0.470455722791E+00
1129930      0.116740311028E+03       0.559875786208E+00      0.473055038845E+00      0.466222883292E+00
1129973      0.116760081367E+03       0.554892146496E+00      0.468498976372E+00      0.462130175735E+00
1130017      0.116780327201E+03       0.549876606507E+00      0.463872791400E+00      0.457997707261E+00
1130061      0.116800414246E+03       0.544990470338E+00      0.459321583132E+00      0.453951798766E+00
1130105      0.116820001616E+03       0.540313154947E+00      0.454921925996E+00      0.450053272325E+00
1130151      0.116840082661E+03       0.535607038561E+00      0.450453508304E+00      0.446098916973E+00
1130198      0.116860256387E+03       0.530968242655E+00      0.446011216901E+00      0.442164767590E+00
1130246      0.116880255669E+03       0.526454398023E+00      0.441657636620E+00      0.438299513732E+00
1130295      0.116900139614E+03       0.522045610568E+00      0.437382632669E+00      0.434489845016E+00
1130345      0.116920122828E+03       0.517688113292E+00      0.433143415752E+00      0.430695390794E+00
1130396      0.116940386272E+03       0.513337304744E+00      0.428906182423E+00      0.426885085586E+00
1130445      0.116960147914E+03       0.509152555692E+00      0.424835813704E+00      0.423208379837E+00
1130493      0.116980069875E+03       0.504984765443E+00      0.420796386173E+00      0.419544116798E+00
1130540      0.117000181128E+03       0.500822126489E+00      0.416785682330E+00      0.415890665130E+00
1130585      0.117020078553E+03       0.496741599106E+00      0.412885752383E+00      0.412323001308E+00
1130630      0.117040266964E+03       0.492634154512E+00      0.408999465609E+00      0.408752100219E+00
1130674      0.117060073041E+03       0.488631966737E+00      0.405256660204E+00      0.405297480362E+00
1130718      0.117080071780E+03       0.484615127064E+00      0.401547417281E+00      0.401858591525E+00
1130762      0.117100374191E+03       0.480560500998E+00      0.397852360509E+00      0.398418296373E+00
1130804      0.117120137535E+03       0.476635935697E+00      0.394321328527E+00      0.395118210561E+00
